rules,  average(ms),  variance
1,64.300000,3.083829
8,86.210000,3.917384
16,111.890000,5.049545
32,112.830000,5.132358
50,215.430000,6.206859
100,375.760000,7.789891
150,535.790000,15.463050
200,689.320000,12.159671
250,848.540000,18.742689
300,1015.440000,21.988779
350,1173.670000,47.020645
400,1327.000000,30.455870
450,1465.590000,24.147503
500,1628.670000,28.571334
